477,328,13,32
477,328,13,32
476,328,13,32
476,328,13,32
476,328,13,32
476,328,13,31
476,328,13,32
476,328,13,32
476,328,13,32
476,328,13,32
476,328,13,32
476,328,13,32
476,328,13,32
476,328,13,32
477,328,13,32
476,328,13,32
476,328,13,32
476,328,13,32
476,328,13,32
476,328,13,32
476,328,13,32
475,328,13,32
475,328,13,31
476,328,13,32
476,328,13,32
476,328,13,32
475,328,13,32
475,328,13,31
476,328,13,32
476,327,13,33
475,327,13,32
475,326,13,33
475,326,13,34
475,325,13,35
475,325,13,35
476,324,13,36
475,323,13,36
475,322,13,37
476,321,13,39
476,320,13,40
476,319,13,41
476,318,13,42
476,317,13,43
477,316,13,44
477,316,14,44
478,315,15,44
478,315,15,44
479,315,16,44
479,315,17,44
479,315,17,44
480,315,18,44
481,315,18,44
483,314,18,45
483,314,18,45
484,314,18,45
485,314,18,46
486,313,18,46
488,313,18,46
488,313,18,46
489,313,18,46
491,313,18,46
491,313,18,46
492,313,18,46
494,313,18,46
495,313,18,46
496,313,18,46
497,313,18,46
499,313,18,46
500,313,18,46
500,313,18,46
500,313,18,46
502,313,18,46
503,313,18,47
503,313,19,47
504,313,19,47
505,313,19,47
506,313,19,47
507,313,19,47
508,312,19,47
510,312,19,47
510,312,19,47
512,313,19,47
512,312,19,47
512,312,19,46
513,312,19,47
515,312,19,47
518,313,19,47
517,312,19,46
519,312,19,47
520,312,19,47
521,312,19,47
522,312,20,47
523,312,20,47
524,312,20,47
525,312,21,47
526,312,21,47
526,312,21,47
527,312,21,46
528,312,21,46
529,312,21,46
529,312,21,46
531,312,21,46
532,312,20,46
534,312,19,46
532,310,18,46
537,312,18,46
538,311,18,46
539,312,18,46
540,312,18,47
541,312,18,47
542,313,18,46
543,313,18,47
544,313,18,47
545,312,18,45
547,312,18,45
548,313,19,46
549,312,19,46
551,313,20,46
551,312,20,45
553,312,20,46
553,312,20,45
554,312,20,46
554,312,20,46
555,312,20,45
555,312,20,46
557,312,20,46
558,311,19,45
560,312,18,45
561,311,18,45
563,311,18,45
563,312,18,44
564,312,18,44
565,313,18,43
568,314,18,44
567,313,18,43
568,314,18,43
569,314,18,43
570,314,18,44
571,314,18,44
573,316,18,44
572,315,18,43
574,315,18,43
574,315,18,42
576,315,18,42
577,314,18,42
578,313,18,40
579,313,18,41
579,313,18,40
580,313,18,40
581,313,18,40
582,313,18,40
583,313,18,40
584,314,18,41
584,314,19,41
584,314,18,41
585,314,19,41
586,314,19,40
586,315,19,41
586,314,19,40
587,314,19,41
588,314,19,41
589,315,19,41
590,314,19,41
589,314,20,42
589,314,20,41
589,314,21,42
589,314,21,42
590,314,21,43
590,314,22,44
591,314,22,44
592,314,22,44
592,314,22,43
593,315,22,43
594,315,22,43
595,315,22,43
596,315,22,42
597,315,22,42
597,317,22,42
597,316,22,40
597,318,22,41
597,318,22,41
597,319,22,40
597,319,22,40
597,319,22,40
597,320,22,39
597,320,22,39
597,321,22,38
597,321,22,37
597,322,22,37
597,323,22,36
596,323,22,36
596,324,22,35
596,324,22,35
596,324,22,35
597,325,21,35
597,325,21,35
597,325,21,35
598,325,21,35
598,325,21,35
599,325,21,35
599,325,20,35
599,325,20,35
598,325,20,34
600,325,20,35
600,325,19,34
599,325,19,34
600,325,19,35
600,325,19,34
600,325,19,33
601,325,19,34
600,325,19,33
600,326,19,32
600,326,19,32
600,326,19,32
600,326,19,33
600,326,19,31
600,326,19,31
601,326,19,32
600,326,19,31
600,326,19,31
600,327,19,31
601,327,19,31
601,327,19,30
601,327,19,30
601,327,19,31
601,327,19,31
600,327,19,30
601,327,19,30
601,327,19,30
601,327,19,30
601,327,19,31
601,327,19,31
601,327,19,30
602,327,19,31
601,327,19,30
602,327,19,31
601,327,19,31
601,327,19,30
601,327,19,30
602,327,19,30
602,327,19,30
602,327,19,31
602,327,19,31
601,327,19,30
602,327,19,31
602,327,19,31
601,327,19,30
602,327,19,30
602,327,19,30
602,327,19,30
602,327,19,31
602,327,19,31
602,327,19,31
602,327,19,31
602,327,19,31
602,327,19,31
602,327,19,31
602,327,19,31
602,327,19,31
602,327,19,31
602,327,19,31
602,327,19,31
602,327,19,31
602,327,19,30
602,327,19,30
602,327,19,30
602,327,19,30
602,327,19,30
602,327,19,31
602,327,19,30
602,327,19,31
602,327,19,31
602,327,19,30
602,327,19,30
602,327,19,31
602,327,19,30
600,326,19,30
602,327,19,31
602,326,19,31
602,326,19,30
602,326,19,30
602,326,19,30
602,326,19,30
602,326,19,30
602,326,19,30
602,326,19,30
601,326,19,30
602,326,19,30
602,326,19,30
602,326,19,30
602,326,19,30
602,326,19,30
602,327,19,30
602,327,19,30
602,327,19,30
601,327,19,30
602,327,19,30
602,327,19,30
602,327,19,30
602,327,19,30
603,328,19,31
602,327,19,30
602,327,19,30
602,327,19,30
602,327,19,31
602,328,19,30
602,328,19,31
602,328,19,31
602,328,19,30
602,328,19,30
602,328,19,30
601,328,19,30
602,328,19,30
601,328,19,30
602,328,19,30
602,328,19,31
602,328,19,31
602,328,19,30
602,328,19,30
602,328,19,30
602,328,19,31
602,327,19,31
603,327,19,31
603,327,19,31
603,327,19,30
604,327,19,31
603,327,19,31
603,327,19,31
603,327,19,31
603,327,19,30
603,327,19,31
604,328,19,31
603,327,19,31
603,327,19,31
603,327,19,31
603,327,19,31
603,327,19,31
603,327,19,31
603,327,19,31
603,327,19,31
603,327,19,31
604,329,19,31
603,328,19,31
604,328,19,31
603,328,19,31
604,328,19,31
603,328,19,31
603,328,19,31
603,328,19,31
603,328,19,31
603,328,19,31
603,329,19,30
603,329,19,31
604,329,19,31
603,329,19,31
602,329,19,30
603,328,19,31
603,328,19,31
603,328,19,31
603,328,19,31
603,328,19,31
604,328,19,31
603,328,19,31
603,328,19,31
603,328,19,31
604,329,19,31
603,327,19,31
603,327,19,31
603,327,19,31
604,328,19,31
603,328,19,31
603,328,19,31
603,328,19,31
604,328,19,31
603,328,19,31
603,328,19,31
603,328,19,31
603,328,19,31
603,328,19,31
603,329,19,31
603,329,19,31
603,329,19,31
603,329,19,31
603,328,19,31
603,328,19,31
602,328,19,31
602,328,19,31
602,328,19,31
602,328,19,31
601,328,19,31
601,327,19,31
601,327,19,31
600,327,19,31
600,327,19,31
600,327,19,31
601,326,19,32
600,326,19,32
601,325,19,33
600,324,19,34
601,324,19,34
600,323,19,35
600,322,19,35
600,322,19,36
600,321,19,37
600,321,19,37
600,320,19,38
600,319,19,38
600,319,19,38
601,318,19,39
601,318,19,39
602,317,19,40
602,317,19,41
602,316,19,40
603,316,19,40
603,315,19,41
603,315,19,41
603,315,19,43
603,315,19,43
603,315,19,44
603,315,19,44
603,315,19,45
603,315,19,45
603,315,19,45
603,315,19,45
603,315,19,44
603,315,19,45
603,314,19,45
603,314,19,44
604,314,19,45
604,314,18,44
604,314,18,44
605,314,18,44
605,314,18,44
606,314,18,45
607,314,18,45
608,314,17,45
607,313,17,44
608,313,17,44
608,313,17,44
608,313,17,44
610,313,17,45
610,313,17,45
610,313,17,45
610,313,17,44
610,312,17,44
611,312,17,45
611,312,17,45
611,312,17,45
611,312,17,45
611,312,17,45
611,312,17,45
612,312,17,45
611,312,17,44
612,312,17,45
612,312,17,45
612,312,17,45
612,312,17,45
612,312,17,45
612,312,17,44
612,312,17,45
612,312,17,43
612,312,17,44
612,312,17,44
613,312,17,44
614,312,17,43
613,312,17,43
613,312,17,43
613,312,17,43
612,312,17,43
612,312,17,43
612,312,17,42
612,312,17,43
611,312,17,43
611,312,17,43
612,313,17,43
611,313,17,43
611,313,17,43
610,313,17,43
609,312,17,42
610,313,17,43
610,313,17,43
609,313,17,42
609,313,17,42
609,313,17,42
608,313,17,43
608,313,17,42
607,313,17,41
608,313,17,42
607,313,17,42
606,313,17,40
605,313,17,41
606,313,17,41
605,313,17,40
605,313,17,40
604,313,17,40
605,313,17,41
603,313,17,41
603,313,17,40
603,313,17,40
602,313,17,41
602,313,17,41
602,313,17,40
601,313,17,40
600,313,17,41
600,313,17,40
600,313,17,41
599,313,17,41
598,313,17,40
598,313,17,40
598,313,17,40
597,313,17,41
598,313,17,41
596,313,17,41
596,313,17,40
596,313,17,39
596,314,17,40
595,314,17,39
595,314,17,39
594,314,17,38
594,315,17,38
593,315,17,38
593,315,17,38
594,315,17,38
594,315,17,37
594,315,17,37
594,316,17,37
594,316,17,37
593,316,17,37
592,317,17,36
592,317,17,36
592,317,17,36
591,318,17,35
590,318,17,35
590,319,17,35
590,319,17,34
589,319,17,34
589,320,17,34
588,320,17,32
589,321,17,32
589,321,17,33
588,321,17,32
588,322,17,31
588,322,17,32
588,322,17,30
588,323,17,31
588,323,17,31
589,323,17,29
589,324,17,29
589,324,17,30
589,324,17,29
589,325,17,29
589,325,17,29
590,325,17,29
590,325,17,29
590,325,17,29
590,325,17,29
590,325,17,29
590,325,17,29
590,325,17,29
590,325,17,29
590,324,17,28
590,324,17,28
591,324,17,29
591,324,17,29
591,325,17,29
591,325,17,29
591,325,17,29
591,325,17,28
591,325,17,28
590,325,17,28
590,325,17,27
590,325,17,27
590,325,17,27
590,326,17,27
590,326,17,26
590,326,17,26
590,326,17,26
590,326,17,26
590,326,17,26
590,326,17,26
590,326,17,26
590,326,17,26
590,326,17,27
590,326,17,26
591,326,17,27
590,326,17,26
591,326,17,27
590,326,17,26
590,326,17,26
591,326,17,27
590,326,17,27
591,326,17,27
591,326,17,27
591,326,17,27
590,326,17,27
591,326,17,27
591,326,17,27
591,326,17,27
591,326,17,27
590,326,17,27
589,325,17,26
590,326,17,27
590,326,17,26
589,326,17,26
589,326,17,26
589,326,17,26
590,326,17,27
590,326,17,27
589,326,17,26
590,326,17,27
590,326,17,26
590,326,17,27
590,326,17,27
590,326,17,27
590,326,17,27
589,325,17,26
590,326,17,26
590,326,17,27
590,326,17,27
590,326,17,27
590,326,17,27
590,326,17,27
590,326,17,27
590,326,17,27
590,326,17,27
589,326,17,27
589,326,17,27
589,326,17,26
588,326,17,27
588,326,17,26
588,326,17,27
588,326,17,27
587,326,17,26
587,326,17,27
588,326,17,27
587,326,17,27
587,326,17,27
587,327,17,26
586,327,17,26
586,327,17,26
585,327,17,26
583,327,17,26
582,326,17,26
581,326,17,27
579,326,17,27
577,326,17,26
570,326,17,26
568,326,17,27
566,327,17,26
563,327,17,26
562,329,17,26
561,329,17,26
561,329,17,26
561,329,17,26
562,329,17,27
561,329,17,26
562,329,17,26
561,329,17,26
561,330,17,26
561,330,17,26
562,330,17,26
562,330,17,27
561,330,17,26
561,330,17,26
562,330,17,27
562,330,17,27
561,330,17,26
562,331,17,27
561,331,17,26
561,331,17,26
561,330,17,26
561,331,17,26
561,331,17,26
561,331,17,26
561,331,17,26
561,331,17,26
561,331,17,26
561,331,17,26
561,331,17,26
561,331,17,27
560,331,17,26
561,330,17,26
561,330,17,27
561,330,17,26
561,330,17,26
561,330,17,26
560,330,17,26
560,330,17,26
560,330,17,26
560,330,17,26
560,330,17,26
560,330,17,26
560,330,17,26
560,330,17,26
559,330,17,26
559,329,17,26
559,329,17,26
559,329,17,26
559,329,17,27
559,329,17,26
559,329,17,26
558,328,17,26
559,329,17,26
558,329,17,26
558,329,17,26
558,329,17,26
558,329,17,26
559,329,17,27
558,329,17,26
558,329,17,26
558,328,17,27
557,327,17,26
559,329,17,26
560,329,17,26
561,330,17,26
561,331,17,26
563,331,17,27
557,328,17,27
557,328,17,26
557,328,17,27
557,328,17,26
557,328,17,27
557,328,17,27
557,328,17,26
557,327,17,26
557,327,17,26
557,327,17,27
557,327,17,27
557,327,17,26
557,328,17,27
556,328,17,27
556,328,17,26
555,328,17,26
556,328,17,26
556,328,17,26
557,328,17,26
557,328,17,26
561,330,17,26
559,329,17,27
558,328,17,27
556,327,17,28
556,327,17,28
556,327,17,27
556,326,17,28
555,326,17,28
554,326,17,28
555,325,17,29
555,325,17,28
555,325,17,29
555,325,17,29
555,326,17,30
555,327,17,30
555,327,17,30
555,328,17,30
555,326,17,30
555,323,17,31
554,324,17,30
554,323,17,31
554,323,17,31
554,322,17,31
554,322,17,31
554,321,17,31
553,321,17,31
554,320,17,33
555,319,16,33
555,318,16,34
555,318,15,34
556,317,15,36
555,316,15,36
556,315,15,37
556,315,15,37
556,315,15,37
557,314,15,37
557,314,15,37
557,314,15,38
558,314,15,38
557,313,15,37
558,313,15,38
558,313,15,38
558,313,15,38
558,313,15,38
558,313,15,38
558,313,15,37
558,313,15,37
558,312,15,37
558,312,15,38
558,312,15,38
558,312,15,38
558,312,15,38
558,312,15,37
559,312,15,37
559,312,15,37
560,312,15,38
560,312,15,38
561,312,15,38
561,312,15,38
562,312,15,38
561,312,15,37
562,312,15,38
563,312,15,38
563,312,15,38
563,313,15,38
563,313,15,37
563,313,15,38
563,313,15,37
564,313,15,38
564,313,15,37
564,313,15,37
564,313,15,37
565,313,15,37
558,312,15,37
551,312,15,38
543,311,15,38
531,317,15,38
522,311,15,38
523,312,15,38
522,310,15,37
523,311,15,38
522,311,15,38
522,311,15,37
521,310,15,37
521,310,15,37
521,311,15,37
521,311,15,38
522,311,15,38
520,311,15,37
520,311,15,37
520,311,15,37
519,311,15,37
519,311,15,37
519,311,15,38
519,311,15,38
518,311,15,38
517,311,15,38
517,311,15,38
517,311,15,37
517,312,15,38
517,312,15,38
517,312,15,37
516,312,15,38
516,312,15,38
516,312,15,37
516,312,15,38
515,312,15,37
515,312,15,38
515,312,15,37
515,312,15,37
515,312,15,37
515,312,15,37
515,312,15,38
515,312,15,37
515,312,15,38
515,312,15,38
515,312,16,37
515,312,16,37
514,312,16,37
514,312,16,37
514,312,16,38
514,312,16,37
514,312,16,38
513,312,16,38
513,312,16,38
513,312,16,37
513,313,16,38
512,312,16,37
512,312,16,37
512,312,16,37
512,312,16,37
512,312,16,37
511,312,16,37
511,312,16,37
510,312,16,37
509,312,16,37
509,312,16,37
508,312,16,37
507,312,16,38
507,312,16,37
507,312,16,37
506,312,16,37
505,312,16,38
504,312,16,37
504,312,16,38
504,312,16,37
503,312,16,37
503,313,16,37
502,313,16,38
502,313,16,38
501,313,16,38
501,313,16,37
500,313,16,37
499,313,16,37
498,313,16,37
497,313,16,37
496,313,16,37
496,313,16,37
495,313,16,38
494,313,16,37
493,313,16,37
492,313,16,37
492,313,16,37
492,313,16,38
491,313,16,38
491,313,16,38
491,313,16,38
490,313,16,38
490,313,16,38
489,313,16,38
488,313,16,37
488,313,16,38
488,313,16,38
487,313,16,37
486,313,16,38
485,313,16,38
484,313,16,37
485,313,16,38
484,313,16,37
484,313,16,38
484,313,16,38
483,313,16,38
483,313,16,38
482,313,16,38
482,313,16,38
482,313,16,38
481,312,16,37
482,312,16,38
482,313,16,38
482,312,16,38
482,312,16,39
481,312,16,39
481,312,16,40
481,312,16,41
481,312,16,40
480,312,16,40
480,312,16,41
480,312,16,41
480,312,16,42
479,312,16,42
480,311,16,43
480,311,16,42
480,312,16,43
480,312,16,42
480,312,16,43
481,312,16,42
482,312,16,43
482,312,16,43
482,312,16,43
483,312,16,43
483,312,16,42
484,312,16,42
484,312,16,43
484,313,16,43
484,313,16,43
485,313,16,43
485,313,16,43
486,313,16,43
486,313,16,43
487,313,16,43
487,313,16,43
488,313,16,43
488,313,16,43
488,313,16,43
488,313,16,43
487,313,16,43
488,314,16,43
488,314,16,42
488,314,16,43
488,314,16,42
488,314,16,42
488,314,16,43
489,314,16,42
489,314,16,42
488,314,16,42
480,314,16,42
473,315,16,43
464,315,16,43
456,315,16,42
449,316,16,42
446,315,16,42
444,315,16,43
440,316,16,42
438,316,16,43
436,317,16,43
429,317,16,42
423,317,16,42
411,319,16,42
403,318,16,42
394,317,16,43
387,316,16,43
385,315,16,43
381,316,16,43
374,317,16,43
368,318,16,42
356,318,16,43
343,320,16,42
332,322,16,42
331,321,16,43
329,321,16,42
328,321,16,43
324,321,16,43
321,320,16,42
314,321,16,42
312,321,16,43
309,320,16,42
307,321,16,43
304,320,16,43
302,320,16,42
296,319,16,43
285,319,16,43
273,319,17,43
263,320,17,43
253,321,18,43
253,321,18,43
252,321,18,42
250,321,19,42
245,321,19,43
240,321,19,43
235,321,19,43
234,323,20,43
231,322,19,43
228,322,19,42
226,322,19,42
224,322,19,43
221,322,19,42
221,323,19,42
221,323,19,42
221,323,19,43
221,323,19,43
221,323,19,43
219,323,19,43
218,325,19,44
216,325,19,45
215,325,19,45
213,325,19,45
212,324,19,46
202,324,19,46
194,322,19,45
191,324,19,45
188,324,19,46
187,324,19,45
186,325,19,45
184,325,19,46
182,325,20,46
180,325,21,47
177,325,21,47
174,325,22,47
171,325,23,46
167,325,23,46
163,325,23,47
159,325,23,47
155,325,23,47
